   0.0000000e+00   0.0000000e+00
   3.3444816e-03   1.7352165e-02
   6.6889632e-03   2.4412273e-02
   1.0033445e-02   2.9743292e-02
   1.3377926e-02   3.4165613e-02
   1.6722408e-02   3.7998866e-02
   2.0066890e-02   4.1407903e-02
   2.3411371e-02   4.4491203e-02
   2.6755853e-02   4.7313290e-02
   3.0100334e-02   4.9919234e-02
   3.3444816e-02   5.2342036e-02
   3.6789298e-02   5.4606750e-02
   4.0133779e-02   5.6732949e-02
   4.3478261e-02   5.8736292e-02
   4.6822742e-02   6.0629544e-02
   5.0167224e-02   6.2423287e-02
   5.3511706e-02   6.4126418e-02
   5.6856187e-02   6.5746503e-02
   6.0200669e-02   6.7290049e-02
   6.3545151e-02   6.8762705e-02
   6.6889632e-02   7.0169410e-02
   7.0234114e-02   7.1514523e-02
   7.3578595e-02   7.2801908e-02
   7.6923077e-02   7.4035017e-02
   8.0267559e-02   7.5216948e-02
   8.3612040e-02   7.6350496e-02
   8.6956522e-02   7.7438193e-02
   9.0301003e-02   7.8482345e-02
   9.3645485e-02   7.9485058e-02
   9.6989967e-02   8.0448262e-02
   1.0033445e-01   8.1373732e-02
   1.0367893e-01   8.2263109e-02
   1.0702341e-01   8.3117908e-02
   1.1036789e-01   8.3939537e-02
   1.1371237e-01   8.4729304e-02
   1.1705686e-01   8.5488431e-02
   1.2040134e-01   8.6218057e-02
   1.2374582e-01   8.6919252e-02
   1.2709030e-01   8.7593016e-02
   1.3043478e-01   8.8240293e-02
   1.3377926e-01   8.8861970e-02
   1.3712375e-01   8.9458883e-02
   1.4046823e-01   9.0031824e-02
   1.4381271e-01   9.0581541e-02
   1.4715719e-01   9.1108743e-02
   1.5050167e-01   9.1614102e-02
   1.5384615e-01   9.2098259e-02
   1.5719064e-01   9.2561820e-02
   1.6053512e-01   9.3005366e-02
   1.6387960e-01   9.3429449e-02
   1.6722408e-01   9.3834595e-02
   1.7056856e-01   9.4221309e-02
   1.7391304e-01   9.4590072e-02
   1.7725753e-01   9.4941346e-02
   1.8060201e-01   9.5275572e-02
   1.8394649e-01   9.5593175e-02
   1.8729097e-01   9.5894562e-02
   1.9063545e-01   9.6180123e-02
   1.9397993e-01   9.6450235e-02
   1.9732441e-01   9.6705259e-02
   2.0066890e-01   9.6945543e-02
   2.0401338e-01   9.7171424e-02
   2.0735786e-01   9.7383223e-02
   2.1070234e-01   9.7581255e-02
   2.1404682e-01   9.7765819e-02
   2.1739130e-01   9.7937207e-02
   2.2073579e-01   9.8095701e-02
   2.2408027e-01   9.8241572e-02
   2.2742475e-01   9.8375084e-02
   2.3076923e-01   9.8496492e-02
   2.3411371e-01   9.8606042e-02
   2.3745819e-01   9.8703975e-02
   2.4080268e-01   9.8790520e-02
   2.4414716e-01   9.8865905e-02
   2.4749164e-01   9.8930347e-02
   2.5083612e-01   9.8984058e-02
   2.5418060e-01   9.9027245e-02
   2.5752508e-01   9.9060106e-02
   2.6086957e-01   9.9082837e-02
   2.6421405e-01   9.9095627e-02
   2.6755853e-01   9.9098660e-02
   2.7090301e-01   9.9092115e-02
   2.7424749e-01   9.9076166e-02
   2.7759197e-01   9.9050982e-02
   2.8093645e-01   9.9016730e-02
   2.8428094e-01   9.8973569e-02
   2.8762542e-01   9.8921658e-02
   2.9096990e-01   9.8861150e-02
   2.9431438e-01   9.8792193e-02
   2.9765886e-01   9.8714933e-02
   3.0100334e-01   9.8629512e-02
   3.0434783e-01   9.8536070e-02
   3.0769231e-01   9.8434741e-02
   3.1103679e-01   9.8325659e-02
   3.1438127e-01   9.8208951e-02
   3.1772575e-01   9.8084746e-02
   3.2107023e-01   9.7953164e-02
   3.2441472e-01   9.7814329e-02
   3.2775920e-01   9.7668357e-02
   3.3110368e-01   9.7515364e-02
   3.3444816e-01   9.7355463e-02
   3.3779264e-01   9.7188764e-02
   3.4113712e-01   9.7015375e-02
   3.4448161e-01   9.6835402e-02
   3.4782609e-01   9.6648948e-02
   3.5117057e-01   9.6456116e-02
   3.5451505e-01   9.6257003e-02
   3.5785953e-01   9.6051708e-02
   3.6120401e-01   9.5840326e-02
   3.6454849e-01   9.5622949e-02
   3.6789298e-01   9.5399670e-02
   3.7123746e-01   9.5170578e-02
   3.7458194e-01   9.4935760e-02
   3.7792642e-01   9.4695304e-02
   3.8127090e-01   9.4449293e-02
   3.8461538e-01   9.4197811e-02
   3.8795987e-01   9.3940938e-02
   3.9130435e-01   9.3678754e-02
   3.9464883e-01   9.3411337e-02
   3.9799331e-01   9.3138765e-02
   4.0133779e-01   9.2861112e-02
   4.0468227e-01   9.2578453e-02
   4.0802676e-01   9.2290859e-02
   4.1137124e-01   9.1998402e-02
   4.1471572e-01   9.1701152e-02
   4.1806020e-01   9.1399178e-02
   4.2140468e-01   9.1092546e-02
   4.2474916e-01   9.0781323e-02
   4.2809365e-01   9.0465574e-02
   4.3143813e-01   9.0145363e-02
   4.3478261e-01   8.9820753e-02
   4.3812709e-01   8.9491805e-02
   4.4147157e-01   8.9158579e-02
   4.4481605e-01   8.8821135e-02
   4.4816054e-01   8.8479532e-02
   4.5150502e-01   8.8133827e-02
   4.5484950e-01   8.7784075e-02
   4.5819398e-01   8.7430334e-02
   4.6153846e-01   8.7072657e-02
   4.6488294e-01   8.6711098e-02
   4.6822742e-01   8.6345710e-02
   4.7157191e-01   8.5976543e-02
   4.7491639e-01   8.5603650e-02
   4.7826087e-01   8.5227081e-02
   4.8160535e-01   8.4846884e-02
   4.8494983e-01   8.4463107e-02
   4.8829431e-01   8.4075800e-02
   4.9163880e-01   8.3685007e-02
   4.9498328e-01   8.3290776e-02
   4.9832776e-01   8.2893152e-02
   5.0167224e-01   8.2492179e-02
   5.0501672e-01   8.2087901e-02
   5.0836120e-01   8.1680360e-02
   5.1170569e-01   8.1269601e-02
   5.1505017e-01   8.0855663e-02
   5.1839465e-01   8.0438589e-02
   5.2173913e-01   8.0018417e-02
   5.2508361e-01   7.9595190e-02
   5.2842809e-01   7.9168944e-02
   5.3177258e-01   7.8739719e-02
   5.3511706e-01   7.8307552e-02
   5.3846154e-01   7.7872480e-02
   5.4180602e-01   7.7434541e-02
   5.4515050e-01   7.6993770e-02
   5.4849498e-01   7.6550203e-02
   5.5183946e-01   7.6103874e-02
   5.5518395e-01   7.5654817e-02
   5.5852843e-01   7.5203067e-02
   5.6187291e-01   7.4748657e-02
   5.6521739e-01   7.4291618e-02
   5.6856187e-01   7.3831984e-02
   5.7190635e-01   7.3369786e-02
   5.7525084e-01   7.2905055e-02
   5.7859532e-01   7.2437822e-02
   5.8193980e-01   7.1968116e-02
   5.8528428e-01   7.1495967e-02
   5.8862876e-01   7.1021406e-02
   5.9197324e-01   7.0544459e-02
   5.9531773e-01   7.0065156e-02
   5.9866221e-01   6.9583523e-02
   6.0200669e-01   6.9099590e-02
   6.0535117e-01   6.8613381e-02
   6.0869565e-01   6.8124924e-02
   6.1204013e-01   6.7634245e-02
   6.1538462e-01   6.7141369e-02
   6.1872910e-01   6.6646322e-02
   6.2207358e-01   6.6149128e-02
   6.2541806e-01   6.5649811e-02
   6.2876254e-01   6.5148396e-02
   6.3210702e-01   6.4644905e-02
   6.3545151e-01   6.4139363e-02
   6.3879599e-01   6.3631791e-02
   6.4214047e-01   6.3122213e-02
   6.4548495e-01   6.2610650e-02
   6.4882943e-01   6.2097124e-02
   6.5217391e-01   6.1581656e-02
   6.5551839e-01   6.1064267e-02
   6.5886288e-01   6.0544978e-02
   6.6220736e-01   6.0023808e-02
   6.6555184e-01   5.9500778e-02
   6.6889632e-01   5.8975908e-02
   6.7224080e-01   5.8449216e-02
   6.7558528e-01   5.7920721e-02
   6.7892977e-01   5.7390442e-02
   6.8227425e-01   5.6858397e-02
   6.8561873e-01   5.6324604e-02
   6.8896321e-01   5.5789080e-02
   6.9230769e-01   5.5251843e-02
   6.9565217e-01   5.4712910e-02
   6.9899666e-01   5.4172297e-02
   7.0234114e-01   5.3630021e-02
   7.0568562e-01   5.3086098e-02
   7.0903010e-01   5.2540543e-02
   7.1237458e-01   5.1993372e-02
   7.1571906e-01   5.1444600e-02
   7.1906355e-01   5.0894242e-02
   7.2240803e-01   5.0342313e-02
   7.2575251e-01   4.9788826e-02
   7.2909699e-01   4.9233797e-02
   7.3244147e-01   4.8677239e-02
   7.3578595e-01   4.8119164e-02
   7.3913043e-01   4.7559588e-02
   7.4247492e-01   4.6998522e-02
   7.4581940e-01   4.6435980e-02
   7.4916388e-01   4.5871973e-02
   7.5250836e-01   4.5306515e-02
   7.5585284e-01   4.4739616e-02
   7.5919732e-01   4.4171289e-02
   7.6254181e-01   4.3601546e-02
   7.6588629e-01   4.3030397e-02
   7.6923077e-01   4.2457854e-02
   7.7257525e-01   4.1883927e-02
   7.7591973e-01   4.1308627e-02
   7.7926421e-01   4.0731964e-02
   7.8260870e-01   4.0153948e-02
   7.8595318e-01   3.9574590e-02
   7.8929766e-01   3.8993898e-02
   7.9264214e-01   3.8411882e-02
   7.9598662e-01   3.7828552e-02
   7.9933110e-01   3.7243916e-02
   8.0267559e-01   3.6657983e-02
   8.0602007e-01   3.6070761e-02
   8.0936455e-01   3.5482259e-02
   8.1270903e-01   3.4892486e-02
   8.1605351e-01   3.4301448e-02
   8.1939799e-01   3.3709154e-02
   8.2274247e-01   3.3115611e-02
   8.2608696e-01   3.2520826e-02
   8.2943144e-01   3.1924807e-02
   8.3277592e-01   3.1327561e-02
   8.3612040e-01   3.0729093e-02
   8.3946488e-01   3.0129411e-02
   8.4280936e-01   2.9528521e-02
   8.4615385e-01   2.8926429e-02
   8.4949833e-01   2.8323141e-02
   8.5284281e-01   2.7718663e-02
   8.5618729e-01   2.7113000e-02
   8.5953177e-01   2.6506157e-02
   8.6287625e-01   2.5898141e-02
   8.6622074e-01   2.5288956e-02
   8.6956522e-01   2.4678606e-02
   8.7290970e-01   2.4067097e-02
   8.7625418e-01   2.3454433e-02
   8.7959866e-01   2.2840618e-02
   8.8294314e-01   2.2225656e-02
   8.8628763e-01   2.1609552e-02
   8.8963211e-01   2.0992309e-02
   8.9297659e-01   2.0373931e-02
   8.9632107e-01   1.9754421e-02
   8.9966555e-01   1.9133783e-02
   9.0301003e-01   1.8512020e-02
   9.0635452e-01   1.7889134e-02
   9.0969900e-01   1.7265129e-02
   9.1304348e-01   1.6640007e-02
   9.1638796e-01   1.6013771e-02
   9.1973244e-01   1.5386423e-02
   9.2307692e-01   1.4757966e-02
   9.2642140e-01   1.4128400e-02
   9.2976589e-01   1.3497729e-02
   9.3311037e-01   1.2865954e-02
   9.3645485e-01   1.2233077e-02
   9.3979933e-01   1.1599098e-02
   9.4314381e-01   1.0964020e-02
   9.4648829e-01   1.0327843e-02
   9.4983278e-01   9.6905691e-03
   9.5317726e-01   9.0521981e-03
   9.5652174e-01   8.4127312e-03
   9.5986622e-01   7.7721689e-03
   9.6321070e-01   7.1305116e-03
   9.6655518e-01   6.4877596e-03
   9.6989967e-01   5.8439131e-03
   9.7324415e-01   5.1989722e-03
   9.7658863e-01   4.5529366e-03
   9.7993311e-01   3.9058061e-03
   9.8327759e-01   3.2575804e-03
   9.8662207e-01   2.6082589e-03
   9.8996656e-01   1.9578409e-03
   9.9331104e-01   1.3063258e-03
   9.9665552e-01   6.5371246e-04
   1.0000000e+00   0.0000000e+00
   1.0000000e+00   0.0000000e+00
   9.9665552e-01  -2.8710485e-04
   9.9331104e-01  -5.7746198e-04
   9.8996656e-01  -8.7095876e-04
   9.8662207e-01  -1.1674839e-03
   9.8327759e-01  -1.4669274e-03
   9.7993311e-01  -1.7691807e-03
   9.7658863e-01  -2.0741365e-03
   9.7324415e-01  -2.3816887e-03
   9.6989967e-01  -2.6917327e-03
   9.6655518e-01  -3.0041650e-03
   9.6321070e-01  -3.3188836e-03
   9.5986622e-01  -3.6357878e-03
   9.5652174e-01  -3.9547779e-03
   9.5317726e-01  -4.2757557e-03
   9.4983278e-01  -4.5986244e-03
   9.4648829e-01  -4.9232882e-03
   9.4314381e-01  -5.2496528e-03
   9.3979933e-01  -5.5776249e-03
   9.3645485e-01  -5.9071128e-03
   9.3311037e-01  -6.2380257e-03
   9.2976589e-01  -6.5702742e-03
   9.2642140e-01  -6.9037703e-03
   9.2307692e-01  -7.2384269e-03
   9.1973244e-01  -7.5741584e-03
   9.1638796e-01  -7.9108803e-03
   9.1304348e-01  -8.2485094e-03
   9.0969900e-01  -8.5869635e-03
   9.0635452e-01  -8.9261619e-03
   9.0301003e-01  -9.2660248e-03
   8.9966555e-01  -9.6064740e-03
   8.9632107e-01  -9.9474320e-03
   8.9297659e-01  -1.0288823e-02
   8.8963211e-01  -1.0630571e-02
   8.8628763e-01  -1.0972604e-02
   8.8294314e-01  -1.1314849e-02
   8.7959866e-01  -1.1657233e-02
   8.7625418e-01  -1.1999688e-02
   8.7290970e-01  -1.2342143e-02
   8.6956522e-01  -1.2684531e-02
   8.6622074e-01  -1.3026785e-02
   8.6287625e-01  -1.3368839e-02
   8.5953177e-01  -1.3710628e-02
   8.5618729e-01  -1.4052090e-02
   8.5284281e-01  -1.4393162e-02
   8.4949833e-01  -1.4733782e-02
   8.4615385e-01  -1.5073890e-02
   8.4280936e-01  -1.5413428e-02
   8.3946488e-01  -1.5752337e-02
   8.3612040e-01  -1.6090560e-02
   8.3277592e-01  -1.6428041e-02
   8.2943144e-01  -1.6764726e-02
   8.2608696e-01  -1.7100562e-02
   8.2274247e-01  -1.7435494e-02
   8.1939799e-01  -1.7769472e-02
   8.1605351e-01  -1.8102445e-02
   8.1270903e-01  -1.8434364e-02
   8.0936455e-01  -1.8765179e-02
   8.0602007e-01  -1.9094844e-02
   8.0267559e-01  -1.9423312e-02
   7.9933110e-01  -1.9750537e-02
   7.9598662e-01  -2.0076475e-02
   7.9264214e-01  -2.0401082e-02
   7.8929766e-01  -2.0724316e-02
   7.8595318e-01  -2.1046136e-02
   7.8260870e-01  -2.1366500e-02
   7.7926421e-01  -2.1685370e-02
   7.7591973e-01  -2.2002706e-02
   7.7257525e-01  -2.2318470e-02
   7.6923077e-01  -2.2632627e-02
   7.6588629e-01  -2.2945140e-02
   7.6254181e-01  -2.3255974e-02
   7.5919732e-01  -2.3565095e-02
   7.5585284e-01  -2.3872471e-02
   7.5250836e-01  -2.4178069e-02
   7.4916388e-01  -2.4481857e-02
   7.4581940e-01  -2.4783806e-02
   7.4247492e-01  -2.5083886e-02
   7.3913043e-01  -2.5382068e-02
   7.3578595e-01  -2.5678325e-02
   7.3244147e-01  -2.5972630e-02
   7.2909699e-01  -2.6264956e-02
   7.2575251e-01  -2.6555279e-02
   7.2240803e-01  -2.6843573e-02
   7.1906355e-01  -2.7129817e-02
   7.1571906e-01  -2.7413986e-02
   7.1237458e-01  -2.7696060e-02
   7.0903010e-01  -2.7976017e-02
   7.0568562e-01  -2.8253836e-02
   7.0234114e-01  -2.8529498e-02
   6.9899666e-01  -2.8802985e-02
   6.9565217e-01  -2.9074279e-02
   6.9230769e-01  -2.9343362e-02
   6.8896321e-01  -2.9610218e-02
   6.8561873e-01  -2.9874832e-02
   6.8227425e-01  -3.0137187e-02
   6.7892977e-01  -3.0397271e-02
   6.7558528e-01  -3.0655070e-02
   6.7224080e-01  -3.0910571e-02
   6.6889632e-01  -3.1163762e-02
   6.6555184e-01  -3.1414631e-02
   6.6220736e-01  -3.1663168e-02
   6.5886288e-01  -3.1909363e-02
   6.5551839e-01  -3.2153206e-02
   6.5217391e-01  -3.2394689e-02
   6.4882943e-01  -3.2633804e-02
   6.4548495e-01  -3.2870544e-02
   6.4214047e-01  -3.3104901e-02
   6.3879599e-01  -3.3336869e-02
   6.3545151e-01  -3.3566444e-02
   6.3210702e-01  -3.3793619e-02
   6.2876254e-01  -3.4018391e-02
   6.2541806e-01  -3.4240756e-02
   6.2207358e-01  -3.4460711e-02
   6.1872910e-01  -3.4678253e-02
   6.1538462e-01  -3.4893379e-02
   6.1204013e-01  -3.5106090e-02
   6.0869565e-01  -3.5316382e-02
   6.0535117e-01  -3.5524257e-02
   6.0200669e-01  -3.5729713e-02
   5.9866221e-01  -3.5932752e-02
   5.9531773e-01  -3.6133374e-02
   5.9197324e-01  -3.6331580e-02
   5.8862876e-01  -3.6527374e-02
   5.8528428e-01  -3.6720757e-02
   5.8193980e-01  -3.6911731e-02
   5.7859532e-01  -3.7100301e-02
   5.7525084e-01  -3.7286470e-02
   5.7190635e-01  -3.7470241e-02
   5.6856187e-01  -3.7651620e-02
   5.6521739e-01  -3.7830611e-02
   5.6187291e-01  -3.8007219e-02
   5.5852843e-01  -3.8181450e-02
   5.5518395e-01  -3.8353310e-02
   5.5183946e-01  -3.8522805e-02
   5.4849498e-01  -3.8689941e-02
   5.4515050e-01  -3.8854726e-02
   5.4180602e-01  -3.9017166e-02
   5.3846154e-01  -3.9177269e-02
   5.3511706e-01  -3.9335043e-02
   5.3177258e-01  -3.9490495e-02
   5.2842809e-01  -3.9643634e-02
   5.2508361e-01  -3.9794467e-02
   5.2173913e-01  -3.9943004e-02
   5.1839465e-01  -4.0089254e-02
   5.1505017e-01  -4.0233224e-02
   5.1170569e-01  -4.0374925e-02
   5.0836120e-01  -4.0514365e-02
   5.0501672e-01  -4.0651555e-02
   5.0167224e-01  -4.0786502e-02
   4.9832776e-01  -4.0919218e-02
   4.9498328e-01  -4.1049711e-02
   4.9163880e-01  -4.1177991e-02
   4.8829431e-01  -4.1304069e-02
   4.8494983e-01  -4.1427953e-02
   4.8160535e-01  -4.1549654e-02
   4.7826087e-01  -4.1669181e-02
   4.7491639e-01  -4.1786545e-02
   4.7157191e-01  -4.1901754e-02
   4.6822742e-01  -4.2014819e-02
   4.6488294e-01  -4.2125749e-02
   4.6153846e-01  -4.2234554e-02
   4.5819398e-01  -4.2341242e-02
   4.5484950e-01  -4.2445824e-02
   4.5150502e-01  -4.2548308e-02
   4.4816054e-01  -4.2648703e-02
   4.4481605e-01  -4.2747017e-02
   4.4147157e-01  -4.2843260e-02
   4.3812709e-01  -4.2937439e-02
   4.3478261e-01  -4.3029562e-02
   4.3143813e-01  -4.3119636e-02
   4.2809365e-01  -4.3207670e-02
   4.2474916e-01  -4.3293670e-02
   4.2140468e-01  -4.3377642e-02
   4.1806020e-01  -4.3459592e-02
   4.1471572e-01  -4.3539528e-02
   4.1137124e-01  -4.3617452e-02
   4.0802676e-01  -4.3693371e-02
   4.0468227e-01  -4.3767289e-02
   4.0133779e-01  -4.3839210e-02
   3.9799331e-01  -4.3909136e-02
   3.9464883e-01  -4.3977070e-02
   3.9130435e-01  -4.4043014e-02
   3.8795987e-01  -4.4106971e-02
   3.8461538e-01  -4.4168939e-02
   3.8127090e-01  -4.4228919e-02
   3.7792642e-01  -4.4286911e-02
   3.7458194e-01  -4.4342912e-02
   3.7123746e-01  -4.4396920e-02
   3.6789298e-01  -4.4448932e-02
   3.6454849e-01  -4.4498944e-02
   3.6120401e-01  -4.4546950e-02
   3.5785953e-01  -4.4592943e-02
   3.5451505e-01  -4.4636918e-02
   3.5117057e-01  -4.4678865e-02
   3.4782609e-01  -4.4718775e-02
   3.4448161e-01  -4.4756638e-02
   3.4113712e-01  -4.4792441e-02
   3.3779264e-01  -4.4826172e-02
   3.3444816e-01  -4.4857816e-02
   3.3110368e-01  -4.4887358e-02
   3.2775920e-01  -4.4914780e-02
   3.2441472e-01  -4.4940064e-02
   3.2107023e-01  -4.4963189e-02
   3.1772575e-01  -4.4984135e-02
   3.1438127e-01  -4.5002876e-02
   3.1103679e-01  -4.5019389e-02
   3.0769231e-01  -4.5033646e-02
   3.0434783e-01  -4.5045619e-02
   3.0100334e-01  -4.5055276e-02
   2.9765886e-01  -4.5062586e-02
   2.9431438e-01  -4.5067513e-02
   2.9096990e-01  -4.5070020e-02
   2.8762542e-01  -4.5070068e-02
   2.8428094e-01  -4.5067616e-02
   2.8093645e-01  -4.5062619e-02
   2.7759197e-01  -4.5055031e-02
   2.7424749e-01  -4.5044803e-02
   2.7090301e-01  -4.5031883e-02
   2.6755853e-01  -4.5016216e-02
   2.6421405e-01  -4.4997744e-02
   2.6086957e-01  -4.4976407e-02
   2.5752508e-01  -4.4952141e-02
   2.5418060e-01  -4.4924877e-02
   2.5083612e-01  -4.4894547e-02
   2.4749164e-01  -4.4861074e-02
   2.4414716e-01  -4.4824381e-02
   2.4080268e-01  -4.4784386e-02
   2.3745819e-01  -4.4741002e-02
   2.3411371e-01  -4.4694139e-02
   2.3076923e-01  -4.4643701e-02
   2.2742475e-01  -4.4589589e-02
   2.2408027e-01  -4.4531698e-02
   2.2073579e-01  -4.4469919e-02
   2.1739130e-01  -4.4404136e-02
   2.1404682e-01  -4.4334228e-02
   2.1070234e-01  -4.4260069e-02
   2.0735786e-01  -4.4181526e-02
   2.0401338e-01  -4.4098460e-02
   2.0066890e-01  -4.4010724e-02
   1.9732441e-01  -4.3918165e-02
   1.9397993e-01  -4.3820622e-02
   1.9063545e-01  -4.3717927e-02
   1.8729097e-01  -4.3609902e-02
   1.8394649e-01  -4.3496361e-02
   1.8060201e-01  -4.3377110e-02
   1.7725753e-01  -4.3251943e-02
   1.7391304e-01  -4.3120645e-02
   1.7056856e-01  -4.2982989e-02
   1.6722408e-01  -4.2838736e-02
   1.6387960e-01  -4.2687638e-02
   1.6053512e-01  -4.2529428e-02
   1.5719064e-01  -4.2363831e-02
   1.5384615e-01  -4.2190553e-02
   1.5050167e-01  -4.2009285e-02
   1.4715719e-01  -4.1819701e-02
   1.4381271e-01  -4.1621458e-02
   1.4046823e-01  -4.1414190e-02
   1.3712375e-01  -4.1197514e-02
   1.3377926e-01  -4.0971022e-02
   1.3043478e-01  -4.0734280e-02
   1.2709030e-01  -4.0486831e-02
   1.2374582e-01  -4.0228187e-02
   1.2040134e-01  -3.9957828e-02
   1.1705686e-01  -3.9675202e-02
   1.1371237e-01  -3.9379719e-02
   1.1036789e-01  -3.9070748e-02
   1.0702341e-01  -3.8747612e-02
   1.0367893e-01  -3.8409588e-02
   1.0033445e-01  -3.8055897e-02
   9.6989967e-02  -3.7685698e-02
   9.3645485e-02  -3.7298085e-02
   9.0301003e-02  -3.6892077e-02
   8.6956522e-02  -3.6466608e-02
   8.3612040e-02  -3.6020516e-02
   8.0267559e-02  -3.5552533e-02
   7.6923077e-02  -3.5061269e-02
   7.3578595e-02  -3.4545192e-02
   7.0234114e-02  -3.4002609e-02
   6.6889632e-02  -3.3431639e-02
   6.3545151e-02  -3.2830182e-02
   6.0200669e-02  -3.2195878e-02
   5.6856187e-02  -3.1526062e-02
   5.3511706e-02  -3.0817696e-02
   5.0167224e-02  -3.0067295e-02
   4.6822742e-02  -2.9270821e-02
   4.3478261e-02  -2.8423549e-02
   4.0133779e-02  -2.7519878e-02
   3.6789298e-02  -2.6553083e-02
   3.3444816e-02  -2.5514954e-02
   3.0100334e-02  -2.4395268e-02
   2.6755853e-02  -2.3181003e-02
   2.3411371e-02  -2.1855079e-02
   2.0066890e-02  -2.0394278e-02
   1.6722408e-02  -1.8765503e-02
   1.3377926e-02  -1.6918457e-02
   1.0033445e-02  -1.4769301e-02
   6.6889632e-03  -1.2156142e-02
   3.3444816e-03  -8.6651300e-03
   0.0000000e+00  -0.0000000e+00
